# mammos csv v3
#----------------------------------------
# Temperature-dependent quantities computed with UppASD
#----------------------------------------
ThermodynamicTemperature,SpontaneousMagnetization,SpontaneousMagneticPolarisation,Energy,IsochoricHeatCapacity,
,,,,Computed as derivative dE/dT.,
https://w3id.org/emmo#EMMO_affe07e4_e9bc_4852_86c6_69e26182a17f,https://w3id.org/emmo/domain/magnetic_material#EMMO_032731f8-874d-5efb-9c9d-6dafaa17ef25,https://w3id.org/emmo/domain/magnetic_material#EMMO_57873439-dfa4-5b74-aec7-d530376ae11c,https://w3id.org/emmo#EMMO_31ec09ba_1713_42cb_83c7_b38bf6f9ced2,https://w3id.org/emmo#EMMO_8fc576e1_3984_402b_a548_be921b4e1bf4,
K,kA / m,T,J,J / K,
T,Ms,Js,E,Cv,U_Binder
0.0,1163.97872493237,1.4626988052691967,-1.0745832871956032e-19,5.515425853169497e-23,0.666666667
1.0,1163.5944451579583,1.462215905062448,-1.0740317446102862e-19,5.516964358641139e-23,0.666666667
10.0,1160.0088381538455,1.457710098410883,-1.0690540147931955e-19,5.536880590372771e-23,0.666666663
20.0,1156.0449267444824,1.4527289004229167,-1.0635103901111625e-19,5.551475129029433e-23,0.666666651
40.0,1148.079816765509,1.4427196480194768,-1.0523760380651177e-19,5.580776246683369e-23,0.66666663
60.0,1139.6819244337748,1.4321665452717265,-1.041187285124429e-19,5.610586001221455e-23,0.666666403
80.0,1131.478442201186,1.4218577454598125,-1.0299336940602318e-19,5.645503196701597e-23,0.666666212
100.0,1123.549748420646,1.4118942550009856,-1.0186052723376226e-19,5.677798005731369e-23,0.666666504
120.0,1115.3093573964672,1.4015390742336415,-1.0072225020373064e-19,5.709238304795543e-23,0.666666378
140.0,1107.2582863421483,1.3914217999570229,-9.957683191184404e-20,5.747141925410454e-23,0.666666202
160.0,1098.4363498319105,1.3803358275785886,-9.842339343356646e-20,5.785243914410236e-23,0.666665793
180.0,1089.9445149878877,1.3696646731881872,-9.726273434607996e-20,5.82362928681685e-23,0.666665798
200.0,1081.2580059005636,1.358748883928614,-9.609394171883972e-20,5.865596189512771e-23,0.666665973
220.0,1072.4028943120823,1.3476212225173199,-9.491649587027484e-20,5.902276901733069e-23,0.666665939
240.0,1063.0873723198824,1.3359149923289277,-9.373303095814649e-20,5.94601386078626e-23,0.666664815
260.0,1053.6714826872642,1.3240826364437481,-9.253809032596034e-20,5.997467567997763e-23,0.666663634
280.0,1044.2770529825993,1.3122772478993852,-9.133404393094739e-20,6.044916849681908e-23,0.666663608
300.0,1035.6877132496916,1.3014835652518733,-9.012012358608757e-20,6.100614768380484e-23,0.666664379
320.0,1025.3332194827792,1.2884717246248807,-8.88937980235952e-20,6.144175157772418e-23,0.666663289
340.0,1015.5741637567486,1.2762081335082562,-8.766245352297861e-20,6.200082344217597e-23,0.666663396
360.0,1006.1070016016545,1.2643113466710652,-8.641376508590815e-20,6.270191181108195e-23,0.666662987
380.0,996.7597537545561,1.25256524859758,-8.515437705053533e-20,6.325550565629093e-23,0.666661545
400.0,986.0480014465335,1.2391044636470694,-8.388354485965652e-20,6.394459600772091e-23,0.666662411
420.0,973.873918532295,1.2238060598597154,-8.259659321022649e-20,6.458925620068728e-23,0.666656035
440.0,963.4337563903186,1.2106865651775658,-8.129997461162902e-20,6.532952123566719e-23,0.666657427
460.0,954.0507562746936,1.1988955394783951,-7.998341236079981e-20,6.616484178482501e-23,0.666659029
480.0,941.5262040380688,1.1831567229513944,-7.865338094023603e-20,6.688625092388038e-23,0.66664983
500.0,929.5134703692319,1.168061076605757,-7.730796232384459e-20,6.777247367254239e-23,0.66663915
520.0,920.2875860534738,1.1564674884437438,-7.594248199333433e-20,6.85555317818428e-23,0.66665623
540.0,907.453685314493,1.1403399331235715,-7.456574105257088e-20,6.943211513492396e-23,0.666636348
560.0,895.2700717935286,1.1250295528225813,-7.316519738793738e-20,7.036800191558901e-23,0.666653163
580.0,883.3553498847962,1.110057071687215,-7.175102097594732e-20,7.147038516732283e-23,0.666652378
600.0,871.0558556084952,1.0946010713342822,-7.030638198124447e-20,7.251722963104014e-23,0.666651709
620.0,856.2834508785681,1.076037520054019,-6.885033179070572e-20,7.35000861214696e-23,0.666635896
640.0,843.2339299785826,1.059639008448188,-6.736637853638567e-20,7.464578561689117e-23,0.666647944
660.0,829.955231897239,1.0429525043024694,-6.586450036603007e-20,7.549328511293044e-23,0.66663932
680.0,813.8942819989444,1.0227697194074201,-6.434664713186846e-20,7.65491760469464e-23,0.666614764
700.0,799.6525857135069,1.0048730760276827,-6.280253332415222e-20,7.80821887238713e-23,0.666642118
720.0,785.5653495083099,0.9871705329093934,-6.12233595829136e-20,7.931472343479691e-23,0.66664125
740.0,764.2042257473737,0.9603273531028689,-5.962994438676034e-20,8.052692647621083e-23,0.666596175
760.0,746.458457333791,0.9380273628185624,-5.800228252386518e-20,8.201237651808912e-23,0.666492165
780.0,730.7335059415285,0.9182668060990099,-5.634944932603677e-20,8.336423308231658e-23,0.666582788
800.0,713.6435603507975,0.896790947080083,-5.466771320057251e-20,8.515335024345826e-23,0.666612526
820.0,692.7200313635909,0.8704976650844171,-5.294331531629844e-20,8.663881772431547e-23,0.666552134
840.0,673.1847733862606,0.8459489358920285,-5.120216049159989e-20,8.838832660465547e-23,0.666570817
860.0,647.7518246195056,0.813988949872725,-4.940778225211222e-20,9.052821792678423e-23,0.666537883
880.0,621.4284259120798,0.7809099914560119,-4.758103177452852e-20,9.283377518861224e-23,0.666286744
900.0,592.8480467459891,0.7449948277464602,-4.5694431244567734e-20,9.518060397385249e-23,0.666321142
920.0,572.0036610592791,0.7188010001554167,-4.3773807615574425e-20,9.819324643345144e-23,0.666376982
940.0,538.4797597540003,0.6766736233083502,-4.1766701387229676e-20,1.0146271491501844e-22,0.665973288
960.0,504.4217825231886,0.6338751068592732,-3.971529901897368e-20,1.0467550889506904e-22,0.666052234
980.0,463.8566189956256,0.5828994189395791,-3.7579681031426913e-20,1.094283107624518e-22,0.665813294
1000.0,417.87680366972614,0.5251194788916207,-3.5338166588475615e-20,1.1541971828528548e-22,0.665466224
1020.0,362.07945467107425,0.4550024621718704,-3.2962892300015495e-20,1.2318680623602714e-22,0.664044902
1040.0,282.6276173800285,0.3551603387784144,-3.041069433903453e-20,1.334344501484978e-22,0.658244137
1050.0,214.3734741182022,0.26938965271235543,-2.9047227077052305e-20,1.418244315400557e-22,0.638007476
1060.0,115.85800895506547,0.1455914679963661,-2.7574205708233414e-20,1.3129104850524332e-22,0.548799037
1080.0,45.73346898854287,0.057470372110318635,-2.5588828273194362e-20,8.363027124488303e-23,0.440205579
1100.0,28.089763949472847,0.035298638445109845,-2.4228994858438095e-20,6.127815651676788e-23,0.455565077
1120.0,22.1615967783996,0.027849083867496127,-2.313770201252365e-20,5.073465015471053e-23,0.433396839
1140.0,18.26154850120471,0.022948138658315777,-2.2199608852249672e-20,4.4645059000860315e-23,0.448735047
1160.0,15.953259325175456,0.020047456929626978,-2.1351899652489235e-20,3.981921397040206e-23,0.430494022
1180.0,14.174932993211574,0.017812746152337248,-2.060684029343359e-20,3.573361435607196e-23,0.444637891
1200.0,13.594026664621008,0.017082757730210285,-1.9922555078246358e-20,3.2542159146563974e-23,0.451034057
1220.0,12.240908101865282,0.015382378794808893,-1.9305153927571032e-20,2.9809939827242226e-23,0.452316674
1240.0,11.340032248559133,0.014250304809175406,-1.873015748515667e-20,2.782121393386679e-23,0.461316894
1260.0,10.737798920777035,0.01349351608944056,-1.819230537021636e-20,2.578137221349556e-23,0.456786031
1280.0,10.264655412301863,0.01289894642098917,-1.7698902596616845e-20,2.4145572015127572e-23,0.464230041
1300.0,9.626657394078707,0.012097214465730841,-1.7226482489611258e-20,2.2470985347838487e-23,0.439332571
1320.0,9.356911596757156,0.01175824189946547,-1.6800063182703307e-20,2.09355464729755e-23,0.432139933
1340.0,8.938784033186778,0.011232807306388997,-1.6389060630692237e-20,1.9955713465510675e-23,0.437253249
1360.0,8.403771966485452,0.010560491314690694,-1.600183464408288e-20,1.8974228114796168e-23,0.415852024
1380.0,8.309686173839324,0.010442259620632631,-1.563009150610039e-20,1.799180759883875e-23,0.421994459
1400.0,8.069776672623782,0.010140780449850458,-1.528216234012933e-20,1.71251426650006e-23,0.431027605
1420.0,7.716411759160158,0.009696729003139242,-1.4945085799500367e-20,1.6208833318010696e-23,0.434439039
1440.0,7.562254231064526,0.009503008939929464,-1.4633809007408902e-20,1.5353285733214235e-23,0.441902565
1460.0,7.291603561531361,0.009162899277706499,-1.4330954370171798e-20,1.473246026464426e-23,0.452340011
1480.0,7.277327712120397,0.009144959716243435,-1.4044510596823132e-20,1.41157176970066e-23,0.437352753
1500.0,7.019280438285042,0.008820687948162901,-1.3766325662291532e-20,1.347508590816375e-23,0.428512707
1520.0,7.100192605111842,0.008922365175773894,-1.3505507160496582e-20,1.2838805144553657e-23,0.423640165
1540.0,6.64748813598164,0.008353479961677523,-1.3252773456509387e-20,1.2248914244660071e-23,0.43730944
1560.0,6.572358848615809,0.008259069714722955,-1.3015550590710178e-20,1.1771912394730984e-23,0.445280895
1580.0,6.589244706436626,0.008280289109486283,-1.2781896960720147e-20,1.1373154883331381e-23,0.449105753
1600.0,12.433475545653009,0.01562436618163026,-1.2560624395376923e-20,1.1063628267161182e-23,0.420781623
